# iamxed --xrd --signal-type static --signal-geoms h2.xyz --qmin 0.0 --qmax 5.0 --npoints 500 --inelastic --export xrd_inelastic --log-to-file-disable --plot-disable
# 	q (Bohr⁻¹)		I (arb. units)
0.000000000000000000e+00 4.000000000000000000e+00
1.002004008016032024e-02 4.000454491607028373e+00
2.004008016032064049e-02 4.000180889738004453e+00
3.006012024048096073e-02 3.999195041270533935e+00
4.008016032064128098e-02 3.997513318630522505e+00
5.010020040080159776e-02 3.995152589146029332e+00
6.012024048096192147e-02 3.992130184646212498e+00
7.014028056112224518e-02 3.988463871323981280e+00
8.016032064128256196e-02 3.984171819880569565e+00
9.018036072144287874e-02 3.979272575970026260e+00
1.002004008016031955e-01 3.973785030961151765e+00
1.102204408817635262e-01 3.967728393034041900e+00
1.202404809619238429e-01 3.961122158628094247e+00
1.302605210420841597e-01 3.953986084257782530e+00
1.402805611222444904e-01 3.946343295257100259e+00
1.503006012024047933e-01 3.938246544958016848e+00
1.603206412825651239e-01 3.929764600695736299e+00
1.703406813627254546e-01 3.920966084398207485e+00
1.803607214428857575e-01 3.911919228884282784e+00
1.903807615230460881e-01 3.902691807000521429e+00
2.004008016032063910e-01 3.893351043234622111e+00
2.104208416833667217e-01 3.883922013533412265e+00
2.204408817635270523e-01 3.874302906005313574e+00
2.304609218436873552e-01 3.864369052533880300e+00
2.404809619238476859e-01 3.853997358876577906e+00
2.505010020040079888e-01 3.843066444781960911e+00
2.605210420841683194e-01 3.831456803597123262e+00
2.705410821643286501e-01 3.819054725769952086e+00
2.805611222444889807e-01 3.805856419939287250e+00
2.905811623246493114e-01 3.791979904263291790e+00
3.006012024048095865e-01 3.777548497029425079e+00
3.106212424849699172e-01 3.762684089237300356e+00
3.206412825651302478e-01 3.747506985040759186e+00
3.306613226452905785e-01 3.732135762086807862e+00
3.406813627254509091e-01 3.716595167426410384e+00
3.507014028056111843e-01 3.701062289329023258e+00
3.607214428857715149e-01 3.685522324578762277e+00
3.707414829659318456e-01 3.669932605838736261e+00
3.807615230460921762e-01 3.654251946363153536e+00
3.907815631262525069e-01 3.638440635271958712e+00
4.008016032064127820e-01 3.622460462062280229e+00
4.108216432865731127e-01 3.606282277243315626e+00
4.208416833667334433e-01 3.589896022201375381e+00
4.308617234468937740e-01 3.573295095753826089e+00
4.408817635270541047e-01 3.556473728492409059e+00
4.509018036072144353e-01 3.539426956406845015e+00
4.609218436873747105e-01 3.522150595101995574e+00
4.709418837675350411e-01 3.504641856787884535e+00
4.809619238476953718e-01 3.486910695797276638e+00
4.909819639278557024e-01 3.468978106092069691e+00
5.010020040080159776e-01 3.450865536159993585e+00
5.110220440881763082e-01 3.432594466347703488e+00
5.210420841683366389e-01 3.414186367540922085e+00
5.310621242484969695e-01 3.395662661754168088e+00
5.410821643286573002e-01 3.377046998063907957e+00
5.511022044088176308e-01 3.358374977639169590e+00
5.611222444889779615e-01 3.339685605305105387e+00
5.711422845691382921e-01 3.321017174258638516e+00
5.811623246492986228e-01 3.302407226848938837e+00
5.911823647294588424e-01 3.283892522011806925e+00
6.012024048096191731e-01 3.265508697847277375e+00
6.112224448897795037e-01 3.247260193827643526e+00
6.212424849699398344e-01 3.229096261343201046e+00
6.312625250501001650e-01 3.210962009793176364e+00
6.412825651302604957e-01 3.192804454307510031e+00
6.513026052104208263e-01 3.174572523010009917e+00
6.613226452905811570e-01 3.156217068873342413e+00
6.713426853707414876e-01 3.137694675651682807e+00
6.813627254509018183e-01 3.119012956569413575e+00
6.913827655310621489e-01 3.100214007936828331e+00
7.014028056112223686e-01 3.081339662854803763e+00
7.114228456913826992e-01 3.062430726809362902e+00
7.214428857715430299e-01 3.043526946662574062e+00
7.314629258517033605e-01 3.024666983875547999e+00
7.414829659318636912e-01 3.005885077076961842e+00
7.515030060120240218e-01 2.987201241992313516e+00
7.615230460921843525e-01 2.968631660399068117e+00
7.715430861723446831e-01 2.950192082644748304e+00
7.815631262525050138e-01 2.931897818016227397e+00
7.915831663326653445e-01 2.913763726291605405e+00
8.016032064128255641e-01 2.895804182604700738e+00
8.116232464929858947e-01 2.878031737273591517e+00
8.216432865731462254e-01 2.860456584915235467e+00
8.316633266533065560e-01 2.843088427060660006e+00
8.416833667334668867e-01 2.825936623129396086e+00
8.517034068136272174e-01 2.809010187347243281e+00
8.617234468937875480e-01 2.792317786413535341e+00
8.717434869739478787e-01 2.775863187557330747e+00
8.817635270541082093e-01 2.759607330223252220e+00
8.917835671342685400e-01 2.743489413831380119e+00
9.018036072144288706e-01 2.727450870186118870e+00
9.118236472945890903e-01 2.711435606363390427e+00
9.218436873747494209e-01 2.695390006049352305e+00
9.318637274549097516e-01 2.679262960231486801e+00
9.418837675350700822e-01 2.663043228359012637e+00
9.519038076152304129e-01 2.646834046400852625e+00
9.619238476953907435e-01 2.630756021488762642e+00
9.719438877755510742e-01 2.614924649483346020e+00
9.819639278557114048e-01 2.599450347961738572e+00
9.919839679358717355e-01 2.584438535375640722e+00
1.002004008016031955e+00 2.569986173763331383e+00
1.012024048096192397e+00 2.556082385909705046e+00
1.022044088176352616e+00 2.542600648966294674e+00
1.032064128256513058e+00 2.529413513304266559e+00
1.042084168336673278e+00 2.516398925413058318e+00
1.052104208416833719e+00 2.503440144485484353e+00
1.062124248496993939e+00 2.490425710886735367e+00
1.072144288577154159e+00 2.477268934020939728e+00
1.082164328657314600e+00 2.464022922363058754e+00
1.092184368737474820e+00 2.450796162674484080e+00
1.102204408817635262e+00 2.437692521770987941e+00
1.112224448897795481e+00 2.424811019467824735e+00
1.122244488977955923e+00 2.412245875181512567e+00
1.132264529058116143e+00 2.400086463549142124e+00
1.142284569138276584e+00 2.388379944597446514e+00
1.152304609218436804e+00 2.377082839330102448e+00
1.162324649298597246e+00 2.366140863416421158e+00
1.172344689378757465e+00 2.355502073549895492e+00
1.182364729458917685e+00 2.345116801032919085e+00
1.192384769539078126e+00 2.334937595467078353e+00
1.202404809619238346e+00 2.324920627962679731e+00
1.212424849699398788e+00 2.315051335979919855e+00
1.222444889779559007e+00 2.305339884475516854e+00
1.232464929859719449e+00 2.295796730048591971e+00
1.242484969939879669e+00 2.286431747039007867e+00
1.252505010020040110e+00 2.277254236747952909e+00
1.262525050100200330e+00 2.268272937566390812e+00
1.272545090180360772e+00 2.259494005901915958e+00
1.282565130260520991e+00 2.250912512756877426e+00
1.292585170340681211e+00 2.242520174578020331e+00
1.302605210420841653e+00 2.234309007272976988e+00
1.312625250501001872e+00 2.226271322141728071e+00
1.322645290581162314e+00 2.218399719698942452e+00
1.332665330661322534e+00 2.210687113422245886e+00
1.342685370741482975e+00 2.203129648053133050e+00
1.352705410821643195e+00 2.195728954176142000e+00
1.362725450901803637e+00 2.188487056349265103e+00
1.372745490981963856e+00 2.181405775151834092e+00
1.382765531062124298e+00 2.174486731596449118e+00
1.392785571142284518e+00 2.167731351695160846e+00
1.402805611222444737e+00 2.161140871171895128e+00
1.412825651302605179e+00 2.154716340314055234e+00
1.422845691382765398e+00 2.148458628955685068e+00
1.432865731462925840e+00 2.142368431584940058e+00
1.442885771543086060e+00 2.136446272568770510e+00
1.452905811623246501e+00 2.130692511487335850e+00
1.462925851703406721e+00 2.125107348571508847e+00
1.472945891783567163e+00 2.119690412013269132e+00
1.482965931863727382e+00 2.114439536336775838e+00
1.492985971943887824e+00 2.109352112834841364e+00
1.503006012024048044e+00 2.104425530969909808e+00
1.513026052104208263e+00 2.099657179716681643e+00
1.523046092184368705e+00 2.095044448902991796e+00
1.533066132264528925e+00 2.090584730547155878e+00
1.543086172344689366e+00 2.086275420190734309e+00
1.553106212424849586e+00 2.082113918224993032e+00
1.563126252505010028e+00 2.078097631210257035e+00
1.573146292585170247e+00 2.074223973186346992e+00
1.583166332665330689e+00 2.070490366973309904e+00
1.593186372745490909e+00 2.066894245461300184e+00
1.603206412825651128e+00 2.063432567735789647e+00
1.613226452905811570e+00 2.060097773309365277e+00
1.623246492985971789e+00 2.056880106075221981e+00
1.633266533066132231e+00 2.053770210645628591e+00
1.643286573146292451e+00 2.050759147164131324e+00
1.653306613226452892e+00 2.047838379255297880e+00
1.663326653306613112e+00 2.044999763485373379e+00
1.673346693386773554e+00 2.042237012373964600e+00
1.683366733466933773e+00 2.039548618313169470e+00
1.693386773547094215e+00 2.036933949920323617e+00
1.703406813627254435e+00 2.034392349896797292e+00
1.713426853707414654e+00 2.031923136068596314e+00
1.723446893787575096e+00 2.029525602428551956e+00
1.733466933867735316e+00 2.027199029624990434e+00
1.743486973947895757e+00 2.024942950183099555e+00
1.753507014028055977e+00 2.022757167248155241e+00
1.763527054108216419e+00 2.020641446795815366e+00
1.773547094188376638e+00 2.018595502245075668e+00
1.783567134268537080e+00 2.016618996571941214e+00
1.793587174348697300e+00 2.014711544425588752e+00
1.803607214428857741e+00 2.012872714245228956e+00
1.813627254509017961e+00 2.011102030375982785e+00
1.823647294589178181e+00 2.009398975182262959e+00
1.833667334669338622e+00 2.007762991156941013e+00
1.843687374749498842e+00 2.006193483024953039e+00
1.853707414829659283e+00 2.004689819839706733e+00
1.863727454909819503e+00 2.003251335865632754e+00
1.873747494989979945e+00 2.001876989159029119e+00
1.883767535070140164e+00 2.000564920085735832e+00
1.893787575150300606e+00 1.999313193125096699e+00
1.903807615230460826e+00 1.998119919188058091e+00
1.913827655310621267e+00 1.996983254789084450e+00
1.923847695390781487e+00 1.995901401226618965e+00
1.933867735470941707e+00 1.994872603771798758e+00
1.943887775551102148e+00 1.993895150865691024e+00
1.953907815631262368e+00 1.992967373324923352e+00
1.963927855711422810e+00 1.992087643555699117e+00
1.973947895791583029e+00 1.991254374776467717e+00
1.983967935871743471e+00 1.990466020248928602e+00
1.993987975951903691e+00 1.989721072517586453e+00
2.004008016032063910e+00 1.989018118311934424e+00
2.014028056112224352e+00 1.988356071997550378e+00
2.024048096192384794e+00 1.987733960746532302e+00
2.034068136272544791e+00 1.987150822943349660e+00
2.044088176352705233e+00 1.986605708419044714e+00
2.054108216432865675e+00 1.986097678743358852e+00
2.064128256513026116e+00 1.985625807506687712e+00
2.074148296593186114e+00 1.985189180592037417e+00
2.084168336673346555e+00 1.984786896436844250e+00
2.094188376753506997e+00 1.984418066284890703e+00
2.104208416833667439e+00 1.984081814428353185e+00
2.114228456913827436e+00 1.983777278440112868e+00
2.124248496993987878e+00 1.983503609396172651e+00
2.134268537074148320e+00 1.983259847913828589e+00
2.144288577154308317e+00 1.983043430065330348e+00
2.154308617234468759e+00 1.982850767754527510e+00
2.164328657314629201e+00 1.982678422482688552e+00
2.174348697394789642e+00 1.982523124091120748e+00
2.184368737474949640e+00 1.982381764742663144e+00
2.194388777555110082e+00 1.982251393389452998e+00
2.204408817635270523e+00 1.982129210715568579e+00
2.214428857715430965e+00 1.982012564541645983e+00
2.224448897795590963e+00 1.981898945681008328e+00
2.234468937875751404e+00 1.981785984235241882e+00
2.244488977955911846e+00 1.981671446319095864e+00
2.254509018036071843e+00 1.981553231203622367e+00
2.264529058116232285e+00 1.981429459570509310e+00
2.274549098196392727e+00 1.981302903585312469e+00
2.284569138276553169e+00 1.981182664697741957e+00
2.294589178356713166e+00 1.981077810847638343e+00
2.304609218436873608e+00 1.980996862546261505e+00
2.314629258517034049e+00 1.980947817617278117e+00
2.324649298597194491e+00 1.980938181528340447e+00
2.334669338677354489e+00 1.980973940372233288e+00
2.344689378757514930e+00 1.981050667911421703e+00
2.354709418837675372e+00 1.981158636831400033e+00
2.364729458917835370e+00 1.981288567354382080e+00
2.374749498997995811e+00 1.981431657200340757e+00
2.384769539078156253e+00 1.981579555572992479e+00
2.394789579158316695e+00 1.981724344221515999e+00
2.404809619238476692e+00 1.981860446750524307e+00
2.414829659318637134e+00 1.981988491025086008e+00
2.424849699398797576e+00 1.982110208885469405e+00
2.434869739478958017e+00 1.982227247206986398e+00
2.444889779559118015e+00 1.982341169659736613e+00
2.454909819639278457e+00 1.982453458635942578e+00
2.464929859719438898e+00 1.982565517338797489e+00
2.474949899799598896e+00 1.982678672026384481e+00
2.484969939879759337e+00 1.982794174405185128e+00
2.494989979959919779e+00 1.982913204167589427e+00
2.505010020040080221e+00 1.983036871668261147e+00
2.515030060120240218e+00 1.983166220734440932e+00
2.525050100200400660e+00 1.983302231605996946e+00
2.535070140280561102e+00 1.983445707195738983e+00
2.545090180360721543e+00 1.983596578724740267e+00
2.555110220440881541e+00 1.983754422065444167e+00
2.565130260521041983e+00 1.983918826921557299e+00
2.575150300601202424e+00 1.984089397895419049e+00
2.585170340681362422e+00 1.984265754080549060e+00
2.595190380761522864e+00 1.984447528662391935e+00
2.605210420841683305e+00 1.984634368526388526e+00
2.615230460921843747e+00 1.984825933873868298e+00
2.625250501002003745e+00 1.985021897845498984e+00
2.635270541082164186e+00 1.985221946152248673e+00
2.645290581162324628e+00 1.985425776713604318e+00
2.655310621242485070e+00 1.985633099303545812e+00
2.665330661322645067e+00 1.985843619536779237e+00
2.675350701402805509e+00 1.986056755944979546e+00
2.685370741482965951e+00 1.986271685869396952e+00
2.695390781563125948e+00 1.986487614798261081e+00
2.705410821643286390e+00 1.986703784641316917e+00
2.715430861723446831e+00 1.986919472137410381e+00
2.725450901803607273e+00 1.987133987377802224e+00
2.735470941883767271e+00 1.987346672442803053e+00
2.745490981963927712e+00 1.987556900150062145e+00
2.755511022044088154e+00 1.987764072911852642e+00
2.765531062124248596e+00 1.987967621700252208e+00
2.775551102204408593e+00 1.988167005117817521e+00
2.785571142284569035e+00 1.988361708572452757e+00
2.795591182364729477e+00 1.988551246928121463e+00
2.805611222444889474e+00 1.988735508295088383e+00
2.815631262525049916e+00 1.988915029363006459e+00
2.825651302605210358e+00 1.989090393836105752e+00
2.835671342685370799e+00 1.989262160702117477e+00
2.845691382765530797e+00 1.989430864899770057e+00
2.855711422845691239e+00 1.989597018022148278e+00
2.865731462925851680e+00 1.989761109054818622e+00
2.875751503006012122e+00 1.989923605148911978e+00
2.885771543086172120e+00 1.990084952428086140e+00
2.895791583166332561e+00 1.990245576829193341e+00
2.905811623246493003e+00 1.990405884976504947e+00
2.915831663326653000e+00 1.990566265089208642e+00
2.925851703406813442e+00 1.990727087922167904e+00
2.935871743486973884e+00 1.990888798300825435e+00
2.945891783567134325e+00 1.991052188173626281e+00
2.955911823647294323e+00 1.991218108233036244e+00
2.965931863727454765e+00 1.991387373767053326e+00
2.975951903807615206e+00 1.991560767740082616e+00
2.985971943887775648e+00 1.991739044119343216e+00
2.995991983967935646e+00 1.991922902254960270e+00
3.006012024048096087e+00 1.992111536392741078e+00
3.016032064128256529e+00 1.992302029190037960e+00
3.026052104208416527e+00 1.992491403850893406e+00
3.036072144288576968e+00 1.992676790919783780e+00
3.046092184368737410e+00 1.992855423350512467e+00
3.056112224448897852e+00 1.993024634776356718e+00
3.066132264529057849e+00 1.993182115702400559e+00
3.076152304609218291e+00 1.993328089408980208e+00
3.086172344689378733e+00 1.993464133823394713e+00
3.096192384769539174e+00 1.993591790435013777e+00
3.106212424849699172e+00 1.993712547352958220e+00
3.116232464929859614e+00 1.993827838306935440e+00
3.126252505010020055e+00 1.993939042294011754e+00
3.136272545090180053e+00 1.994047483867715576e+00
3.146292585170340494e+00 1.994154434066477188e+00
3.156312625250500936e+00 1.994261111979238166e+00
3.166332665330661378e+00 1.994368686948393643e+00
3.176352705410821375e+00 1.994478281409951315e+00
3.186372745490981817e+00 1.994590974372643100e+00
3.196392785571142259e+00 1.994707778299028345e+00
3.206412825651302256e+00 1.994828860910076607e+00
3.216432865731462698e+00 1.994953464028196066e+00
3.226452905811623140e+00 1.995080810308080821e+00
3.236472945891783581e+00 1.995210152926926606e+00
3.246492985971943579e+00 1.995340772960379150e+00
3.256513026052104021e+00 1.995471977025776722e+00
3.266533066132264462e+00 1.995603095190474852e+00
3.276553106212424904e+00 1.995733479143309452e+00
3.286573146292584902e+00 1.995862500628430736e+00
3.296593186372745343e+00 1.995989550140055968e+00
3.306613226452905785e+00 1.996114035878008952e+00
3.316633266533065783e+00 1.996235382963595484e+00
3.326653306613226224e+00 1.996353033510744668e+00
3.336673346693386666e+00 1.996466627137851724e+00
3.346693386773547108e+00 1.996576247927873027e+00
3.356713426853707105e+00 1.996682042113321565e+00
3.366733466933867547e+00 1.996784152856475592e+00
3.376753507014027988e+00 1.996882720284896662e+00
3.386773547094188430e+00 1.996977881526857956e+00
3.396793587174348428e+00 1.997069770747182504e+00
3.406813627254508869e+00 1.997158519182969272e+00
3.416833667334669311e+00 1.997244255179729144e+00
3.426853707414829309e+00 1.997327104227662797e+00
3.436873747494989750e+00 1.997407188998045813e+00
3.446893787575150192e+00 1.997484629380300136e+00
3.456913827655310634e+00 1.997559542518959175e+00
3.466933867735470631e+00 1.997632042851500422e+00
3.476953907815631073e+00 1.997702242146236040e+00
3.486973947895791515e+00 1.997770249541168663e+00
3.496993987975951956e+00 1.997836171583029952e+00
3.507014028056111954e+00 1.997900112267287476e+00
3.517034068136272396e+00 1.997962173078943859e+00
3.527054108216432837e+00 1.998022453033902357e+00
3.537074148296592835e+00 1.998081048721472186e+00
3.547094188376753277e+00 1.998138054347880610e+00
3.557114228456913718e+00 1.998193561780866379e+00
3.567134268537074160e+00 1.998247660595342756e+00
3.577154308617234157e+00 1.998300438120654832e+00
3.587174348697394599e+00 1.998351979488864449e+00
3.597194388777555041e+00 1.998402367684947167e+00
3.607214428857715482e+00 1.998451683598226225e+00
3.617234468937875480e+00 1.998500006075740298e+00
3.627254509018035922e+00 1.998547411977492194e+00
3.637274549098196363e+00 1.998593976233399072e+00
3.647294589178356361e+00 1.998639771902575024e+00
3.657314629258516803e+00 1.998684870234639810e+00
3.667334669338677244e+00 1.998729329294339108e+00
3.677354709418837686e+00 1.998773159031853597e+00
3.687374749498997684e+00 1.998816357453022663e+00
3.697394789579158125e+00 1.998858922890551559e+00
3.707414829659318567e+00 1.998900853985066117e+00
3.717434869739479009e+00 1.998942149666731671e+00
3.727454909819639006e+00 1.998982809137656691e+00
3.737474949899799448e+00 1.999022831854855742e+00
3.747494989979959890e+00 1.999062217514025575e+00
3.757515030060119887e+00 1.999100966033688698e+00
3.767535070140280329e+00 1.999139077540163845e+00
3.777555110220440771e+00 1.999176552353123082e+00
3.787575150300601212e+00 1.999213390971542825e+00
3.797595190380761210e+00 1.999249594060505286e+00
3.807615230460921651e+00 1.999285162438313224e+00
3.817635270541082093e+00 1.999320097064281487e+00
3.827655310621242535e+00 1.999354399027041707e+00
3.837675350701402532e+00 1.999388069533286405e+00
3.847695390781562974e+00 1.999421109897214111e+00
3.857715430861723416e+00 1.999453521530228706e+00
3.867735470941883413e+00 1.999485305931282264e+00
3.877755511022043855e+00 1.999516464677702388e+00
3.887775551102204297e+00 1.999546999416394577e+00
3.897795591182364738e+00 1.999576911855662109e+00
3.907815631262524736e+00 1.999606203757207989e+00
3.917835671342685178e+00 1.999634876928898075e+00
3.927855711422845619e+00 1.999662933217773775e+00
3.937875751503006061e+00 1.999690374503465318e+00
3.947895791583166059e+00 1.999717202692200546e+00
3.957915831663326500e+00 1.999743419711154102e+00
