# iamxed --xrd --signal-type static --signal-geoms h2.xyz --qmin 0.0 --qmax 5.0 --npoints 500 --export xrd_elastic --log-to-file-disable --plot-disable
# 	q (Bohr⁻¹)		I (arb. units)
0.000000000000000000e+00 4.000000000000000000e+00
1.002004008016032024e-02 4.000302644666235530e+00
2.004008016032064049e-02 3.999457226927887632e+00
3.006012024048096073e-02 3.997483319024718096e+00
4.008016032064128098e-02 3.994401063004792363e+00
5.010020040080159776e-02 3.990231140377169972e+00
6.012024048096192147e-02 3.984994742011376267e+00
7.014028056112224518e-02 3.978713538302254715e+00
8.016032064128256196e-02 3.971409649618430571e+00
9.018036072144287874e-02 3.963105617052401275e+00
1.002004008016031955e-01 3.953824373489767119e+00
1.102204408817635262e-01 3.943589215014804417e+00
1.202404809619238429e-01 3.932423772669212170e+00
1.302605210420841597e-01 3.920351984580373816e+00
1.402805611222444904e-01 3.907401205020020640e+00
1.503006012024047933e-01 3.893628463898676895e+00
1.603206412825651239e-01 3.879106853088649665e+00
1.703406813627254546e-01 3.863909367333062228e+00
1.803607214428857575e-01 3.848108660865297459e+00
1.903807615230460881e-01 3.831776976868888518e+00
2.004008016032063910e-01 3.814986059415833353e+00
2.104208416833667217e-01 3.797765553611266220e+00
2.204408817635270523e-01 3.780018266624435963e+00
2.304609218436873552e-01 3.761624199632572552e+00
2.404809619238476859e-01 3.742464978251830665e+00
2.505010020040079888e-01 3.722423992988489694e+00
2.605210420841683194e-01 3.701386559182254121e+00
2.705410821643286501e-01 3.679243840846253111e+00
2.805611222444889807e-01 3.655996972096795083e+00
2.905811623246493114e-01 3.631768948823227205e+00
3.006012024048095865e-01 3.606688119641285883e+00
3.106212424849699172e-01 3.580881458821239427e+00
3.206412825651302478e-01 3.554474407077147902e+00
3.306613226452905785e-01 3.527590732254922923e+00
3.406813627254509091e-01 3.500339512469071046e+00
3.507014028056111843e-01 3.472738378269813353e+00
3.607214428857715149e-01 3.444766723037389067e+00
3.707414829659318456e-01 3.416404423139015822e+00
3.807615230460921762e-01 3.387632003237100342e+00
3.907815631262525069e-01 3.358430657645912643e+00
4.008016032064127820e-01 3.328782300171870823e+00
4.108216432865731127e-01 3.298677149344580783e+00
4.208416833667334433e-01 3.268123782165737623e+00
4.308617234468937740e-01 3.237133523854049066e+00
4.408817635270541047e-01 3.205717844705889163e+00
4.509018036072144353e-01 3.173888355581139464e+00
4.609218436873747105e-01 3.141656803345689752e+00
4.709418837675350411e-01 3.109035708467284387e+00
4.809619238476953718e-01 3.076049730536740245e+00
4.909819639278557024e-01 3.042733985192568102e+00
5.010020040080159776e-01 3.009123477866425755e+00
5.110220440881763082e-01 2.975252699411542245e+00
5.210420841683366389e-01 2.941155602540149960e+00
5.310621242484969695e-01 2.906865579647176290e+00
5.410821643286573002e-01 2.872417755469040657e+00
5.511022044088176308e-01 2.837858728345235448e+00
5.611222444889779615e-01 2.803238037532500115e+00
5.711422845691382921e-01 2.768604063203719878e+00
5.811623246492986228e-01 2.734004002057640825e+00
5.911823647294588424e-01 2.699483849141119052e+00
6.012024048096191731e-01 2.665088074385354666e+00
6.112224448897795037e-01 2.630829558355870734e+00
6.212424849699398344e-01 2.596665615934624416e+00
6.312625250501001650e-01 2.562549055153643174e+00
6.412825651302604957e-01 2.528434237276545815e+00
6.513026052104208263e-01 2.494277096049539288e+00
6.613226452905811570e-01 2.460035161182641428e+00
6.713426853707414876e-01 2.425671375557373111e+00
6.813627254509018183e-01 2.391199404848974641e+00
6.913827655310621489e-01 2.356667101744051251e+00
7.014028056112223686e-01 2.322121769924820889e+00
7.114228456913826992e-01 2.287609409630109170e+00
7.214428857715430299e-01 2.253174696308411828e+00
7.314629258517033605e-01 2.218860963207489156e+00
7.414829659318636912e-01 2.184706873022264517e+00
7.515030060120240218e-01 2.150736626624446313e+00
7.615230460921843525e-01 2.116970360547098196e+00
7.715430861723446831e-01 2.083427557768793292e+00
7.815631262525050138e-01 2.050127046093331185e+00
7.915831663326653445e-01 2.017086997463577891e+00
8.016032064128255641e-01 1.984324900346565057e+00
8.116232464929858947e-01 1.951856226848515119e+00
8.216432865731462254e-01 1.919693908888192801e+00
8.316633266533065560e-01 1.887850207649878431e+00
8.416833667334668867e-01 1.856336871180816805e+00
8.517034068136272174e-01 1.825165137723745890e+00
8.617234468937875480e-01 1.794345739596437950e+00
8.717434869739478787e-01 1.763884357263488134e+00
8.817635270541082093e-01 1.733743696847174887e+00
8.917835671342685400e-01 1.703864583526917720e+00
9.018036072144288706e-01 1.674189939407881411e+00
9.118236472945890903e-01 1.644665031693181234e+00
9.218436873747494209e-01 1.615237479138258880e+00
9.318637274549097516e-01 1.585857287692863160e+00
9.418837675350700822e-01 1.556514216452708155e+00
9.519038076152304129e-01 1.527312390353583238e+00
9.619238476953907435e-01 1.498373199300115699e+00
9.719438877755510742e-01 1.469812820071328519e+00
9.819639278557114048e-01 1.441742253506144600e+00
9.919839679358717355e-01 1.414267407721681469e+00
1.002004008016031955e+00 1.387485644751845992e+00
1.012024048096192397e+00 1.361386401504645960e+00
1.022044088176352616e+00 1.335843387053623044e+00
1.032064128256513058e+00 1.310729305040314152e+00
1.042084168336673278e+00 1.285922180004136051e+00
1.052104208416833719e+00 1.261305277283670812e+00
1.062124248496993939e+00 1.236767074690939605e+00
1.072144288577154159e+00 1.212220753474693824e+00
1.082164328657314600e+00 1.187719231344645188e+00
1.092184368737474820e+00 1.163370744577552518e+00
1.102204408817635262e+00 1.139278852577266132e+00
1.112224448897795481e+00 1.115542213516120595e+00
1.122244488977955923e+00 1.092254633540491682e+00
1.132264529058116143e+00 1.069505024903901758e+00
1.142284569138276584e+00 1.047340038562821762e+00
1.152304609218436804e+00 1.025715642106008962e+00
1.162324649298597246e+00 1.004576955703485819e+00
1.172344689378757465e+00 9.838714006459899908e-01
1.182364729458917685e+00 9.635486350333224426e-01
1.192384769539078126e+00 9.435604994940645085e-01
1.202404809619238346e+00 9.238624223517988288e-01
1.212424849699398788e+00 9.044390663531516328e-01
1.222444889779559007e+00 8.852997916332165929e-01
1.232464929859719449e+00 8.664542216145584286e-01
1.242484969939879669e+00 8.479113707946233092e-01
1.252505010020040110e+00 8.296796555939514040e-01
1.262525050100200330e+00 8.117669060520955604e-01
1.272545090180360772e+00 7.941783482641270320e-01
1.282565130260520991e+00 7.769081024121150536e-01
1.292585170340681211e+00 7.599469150138569162e-01
1.302605210420841653e+00 7.432858142855915951e-01
1.312625250501001872e+00 7.269161073688507058e-01
1.322645290581162314e+00 7.108293753985938102e-01
1.332665330661322534e+00 6.950174984496360064e-01
1.342685370741482975e+00 6.794755749890948326e-01
1.352705410821643195e+00 6.642041775626607025e-01
1.362725450901803637e+00 6.492042619884207388e-01
1.372745490981963856e+00 6.344765704261903227e-01
1.382765531062124298e+00 6.200216367704054488e-01
1.392785571142284518e+00 6.058397921576883505e-01
1.402805611222444737e+00 5.919311705828238512e-01
1.412825651302605179e+00 5.782957146169436236e-01
1.422845691382765398e+00 5.649331812217224247e-01
1.432865731462925840e+00 5.518431476534407798e-01
1.442885771543086060e+00 5.390250174508190995e-01
1.452905811623246501e+00 5.264780265005652993e-01
1.462925851703406721e+00 5.142012491746510428e-01
1.472945891783567163e+00 5.021931863104907023e-01
1.482965931863727382e+00 4.904505442226253509e-01
1.492985971943887824e+00 4.789695857516698130e-01
1.503006012024048044e+00 4.677465722505225187e-01
1.513026052104208263e+00 4.567777654860463166e-01
1.523046092184368705e+00 4.460594295134348575e-01
1.533066132264528925e+00 4.355878325226906211e-01
1.543086172344689366e+00 4.253592486566499797e-01
1.553106212424849586e+00 4.153699598000188398e-01
1.563126252505010028e+00 4.056162573389068826e-01
1.573146292585170247e+00 3.960944438903877263e-01
1.583166332665330689e+00 3.868008350016290398e-01
1.593186372745490909e+00 3.777317608181794406e-01
1.603206412825651128e+00 3.688830825686023052e-01
1.613226452905811570e+00 3.602461471370602686e-01
1.623246492985971789e+00 3.518101113396970847e-01
1.633266533066132231e+00 3.435645385687888798e-01
1.643286573146292451e+00 3.354994138940709525e-01
1.653306613226452892e+00 3.276051322855845771e-01
1.663326653306613112e+00 3.198724883317333734e-01
1.673346693386773554e+00 3.122941394939189319e-01
1.683366733466933773e+00 3.048675302538363940e-01
1.693386773547094215e+00 2.975909886808925098e-01
1.703406813627254435e+00 2.904628244920726132e-01
1.713426853707414654e+00 2.834813302810592073e-01
1.723446893787575096e+00 2.766447827363567868e-01
1.733466933867735316e+00 2.699514532941348910e-01
1.743486973947895757e+00 2.633998735122939361e-01
1.753507014028055977e+00 2.569888539554156526e-01
1.763527054108216419e+00 2.507171765360641791e-01
1.773547094188376638e+00 2.445835792487237037e-01
1.783567134268537080e+00 2.385867583945946724e-01
1.793587174348697300e+00 2.327253707994363652e-01
1.803607214428857741e+00 2.269980360230852146e-01
1.813627254509017961e+00 2.214033385593426884e-01
1.823647294589178181e+00 2.159398300249482094e-01
1.833667334669338622e+00 2.106060313364138681e-01
1.843687374749498842e+00 2.054004348735326280e-01
1.853707414829659283e+00 2.003215066284212420e-01
1.863727454909819503e+00 1.953676871334594223e-01
1.873747494989979945e+00 1.905370500809042411e-01
1.883767535070140164e+00 1.858268608728211035e-01
1.893787575150300606e+00 1.812343184509958016e-01
1.903807615230460826e+00 1.767566776350556756e-01
1.913827655310621267e+00 1.723912483087959857e-01
1.923847695390781487e+00 1.681353946094361895e-01
1.933867735470941707e+00 1.639865341200579252e-01
1.943887775551102148e+00 1.599421370654783292e-01
1.953907815631262368e+00 1.559997255117972492e-01
1.963927855711422810e+00 1.521568725698536351e-01
1.973947895791583029e+00 1.484112016028186487e-01
1.983967935871743471e+00 1.447603854381437072e-01
1.993987975951903691e+00 1.412021455840774820e-01
2.004008016032063910e+00 1.377343071050074474e-01
2.014028056112224352e+00 1.343550320422283728e-01
2.024048096192384794e+00 1.310626045505284554e-01
2.034068136272544791e+00 1.278553292670352448e-01
2.044088176352705233e+00 1.247315315053990209e-01
2.054108216432865675e+00 1.216895575048888845e-01
2.064128256513026116e+00 1.187277746666176304e-01
2.074148296593186114e+00 1.158445717770808930e-01
2.084168336673346555e+00 1.130383592192021336e-01
2.094188376753506997e+00 1.103075691710856260e-01
2.104208416833667439e+00 1.076506557926839858e-01
2.114228456913827436e+00 1.050660954005987052e-01
2.124248496993987878e+00 1.025523866312367249e-01
2.134268537074148320e+00 1.001079264175495087e-01
2.144288577154308317e+00 9.772951583990881208e-02
2.154308617234468759e+00 9.541294043807989345e-02
2.164328657314629201e+00 9.315414391094607727e-02
2.174348697394789642e+00 9.094924679168389647e-02
2.184368737474949640e+00 8.879454036033253284e-02
2.194388777555110082e+00 8.668648104172906044e-02
2.204408817635270523e+00 8.462168527671334872e-02
2.214428857715430965e+00 8.259692485482321433e-02
2.224448897795590963e+00 8.060912269703834898e-02
2.234468937875751404e+00 7.865534907747544213e-02
2.244488977955911846e+00 7.673281827329686555e-02
2.254509018036071843e+00 7.483888563246135495e-02
2.264529058116232285e+00 7.297113575165978250e-02
2.274549098196392727e+00 7.113181247280918329e-02
2.284569138276553169e+00 6.932949660600254416e-02
2.294589178356713166e+00 6.757274305766750033e-02
2.304609218436873608e+00 6.586956683365226273e-02
2.314629258517034049e+00 6.422746770162719721e-02
2.324649298597194491e+00 6.265346044399207337e-02
2.334669338677354489e+00 6.115304775969777201e-02
2.344689378757514930e+00 5.972132722976909031e-02
2.354709418837675372e+00 5.834810249115582326e-02
2.364729458917835370e+00 5.702363177097241609e-02
2.374749498997995811e+00 5.573865776801126271e-02
2.384769539078156253e+00 5.448438155919135134e-02
2.394789579158316695e+00 5.325244358185090426e-02
2.404809619238476692e+00 5.203683286419608783e-02
2.414829659318637134e+00 5.083774935119589333e-02
2.424849699398797576e+00 4.965650354000229749e-02
2.434869739478958017e+00 4.849432746097905034e-02
2.444889779559118015e+00 4.735237635860540389e-02
2.454909819639278457e+00 4.623173054038119678e-02
2.464929859719438898e+00 4.513339738735808876e-02
2.474949899799598896e+00 4.405831352022700209e-02
2.484969939879759337e+00 4.300734711520561721e-02
2.494989979959919779e+00 4.198130036428528167e-02
2.505010020040080221e+00 4.098091207471454139e-02
2.515030060120240218e+00 4.000686040291937667e-02
2.525050100200400660e+00 3.905976571838415401e-02
2.535070140280561102e+00 3.814007678849067051e-02
2.545090180360721543e+00 3.724737633862283681e-02
2.555110220440881541e+00 3.638089732055344028e-02
2.565130260521041983e+00 3.553989201829585443e-02
2.575150300601202424e+00 3.472363304163752357e-02
2.585170340681362422e+00 3.393141284575508509e-02
2.595190380761522864e+00 3.316254325912852685e-02
2.605210420841683305e+00 3.241635501970731303e-02
2.615230460921843747e+00 3.169219731927649247e-02
2.625250501002003745e+00 3.098943735596924529e-02
2.635270541082164186e+00 3.030745989486803918e-02
2.645290581162324628e+00 2.964566683663477295e-02
2.655310621242485070e+00 2.900347679410584037e-02
2.665330661322645067e+00 2.838030901022942434e-02
2.675350701402805509e+00 2.777530036625056042e-02
2.685370741482965951e+00 2.718735120715968720e-02
2.695390781563125948e+00 2.661539461234535553e-02
2.705410821643286390e+00 2.605840460419465293e-02
2.715430861723446831e+00 2.551539449029244233e-02
2.725450901803607273e+00 2.498541532197730980e-02
2.735470941883767271e+00 2.446755446702802289e-02
2.745490981963927712e+00 2.396093429437263014e-02
2.755511022044088154e+00 2.346471096883168128e-02
2.765531062124248596e+00 2.297807335402687542e-02
2.775551102204408593e+00 2.250024202170727156e-02
2.785571142284569035e+00 2.203046836586623064e-02
2.795591182364729477e+00 2.156803719335689817e-02
2.805611222444889474e+00 2.111261045465933489e-02
2.815631262525049916e+00 2.066450251832099849e-02
2.825651302605210358e+00 2.022407854786637330e-02
2.835671342685370799e+00 1.979168271348021035e-02
2.845691382765530797e+00 1.936763880268712809e-02
2.855711422845691239e+00 1.895225086749466326e-02
2.865731462925851680e+00 1.854580390732224471e-02
2.875751503006012122e+00 1.814856458714474499e-02
2.885771543086172120e+00 1.776078199038364641e-02
2.895791583166332561e+00 1.738268840618356278e-02
2.905811623246493003e+00 1.701450015081514000e-02
2.915831663326653000e+00 1.665641842304757536e-02
2.925851703406813442e+00 1.630863019343577192e-02
2.935871743486973884e+00 1.597139968837686316e-02
2.945891783567134325e+00 1.564534139238529103e-02
2.955911823647294323e+00 1.533113161952612616e-02
2.965931863727454765e+00 1.502941431608757761e-02
2.975951903807615206e+00 1.474080409312139052e-02
2.985971943887775648e+00 1.446588950528888973e-02
2.995991983967935646e+00 1.420520738389899514e-02
3.006012024048096087e+00 1.395779230331488721e-02
3.016032064128256529e+00 1.372057005110016367e-02
3.026052104208416527e+00 1.349040971793240458e-02
3.036072144288576968e+00 1.326429044690723494e-02
3.046092184368737410e+00 1.303929645845062525e-02
3.056112224448897852e+00 1.281261527713592994e-02
3.066132264529057849e+00 1.258179388135621628e-02
3.076152304609218291e+00 1.234691456453465043e-02
3.086172344689378733e+00 1.210941676538295798e-02
3.096192384769539174e+00 1.187070594193865604e-02
3.106212424849699172e+00 1.163213658897289428e-02
3.116232464929859614e+00 1.139501119887840336e-02
3.126252505010020055e+00 1.116057986932060889e-02
3.136272545090180053e+00 1.093004055360044871e-02
3.146292585170340494e+00 1.070453995083952767e-02
3.156312625250500936e+00 1.048517503424319444e-02
3.166332665330661378e+00 1.027299521682488968e-02
3.176352705410821375e+00 1.006900515508494902e-02
3.186372745490981817e+00 9.874168192226712853e-03
3.196392785571142259e+00 9.689383203732179761e-03
3.206412825651302256e+00 9.514706367184613822e-03
3.216432865731462698e+00 9.349269970637291358e-03
3.226452905811623140e+00 9.192189109908649805e-03
3.236472945891783581e+00 9.042611345118757235e-03
3.246492985971943579e+00 8.899714043937516361e-03
3.256513026052104021e+00 8.762701992413210114e-03
3.266533066132264462e+00 8.630805271322435079e-03
3.276553106212424904e+00 8.503277396368965485e-03
3.286573146292584902e+00 8.379393720939832743e-03
3.296593186372745343e+00 8.258450100501340402e-03
3.306613226452905785e+00 8.139761818085214720e-03
3.316633266533065783e+00 8.022662770675374061e-03
3.326653306613226224e+00 7.906505511272305178e-03
3.336673346693386666e+00 7.790841732090185087e-03
3.346693386773547108e+00 7.675669196454478101e-03
3.356713426853707105e+00 7.561049396130529662e-03
3.366733466933867547e+00 7.447042304190128886e-03
3.376753507014027988e+00 7.333706383585233621e-03
3.386773547094188430e+00 7.221098596258633193e-03
3.396793587174348428e+00 7.109274412805430959e-03
3.406813627254508869e+00 6.998287822704639394e-03
3.416833667334669311e+00 6.888191345145830424e-03
3.426853707414829309e+00 6.779036040480982718e-03
3.436873747494989750e+00 6.670871522336887377e-03
3.446893787575150192e+00 6.563745970428663812e-03
3.456913827655310634e+00 6.457706144119860700e-03
3.466933867735470631e+00 6.352797396779311101e-03
3.476953907815631073e+00 6.249063690989797512e-03
3.486973947895791515e+00 6.146547614668047832e-03
3.496993987975951956e+00 6.045290398159887044e-03
3.507014028056111954e+00 5.945331932378805986e-03
3.517034068136272396e+00 5.846710788060149010e-03
3.527054108216432837e+00 5.749464236207212781e-03
3.537074148296592835e+00 5.653628269809242608e-03
3.547094188376753277e+00 5.559237626914969449e-03
3.557114228456913718e+00 5.466325815148908619e-03
3.567134268537074160e+00 5.374925137760823597e-03
3.577154308617234157e+00 5.285066721301969264e-03
3.587174348697394599e+00 5.196780545024775114e-03
3.597194388777555041e+00 5.110095472105378490e-03
3.607214428857715482e+00 5.025039282791026948e-03
3.617234468937875480e+00 4.941638709577031614e-03
3.627254509018035922e+00 4.859919474520005625e-03
3.637274549098196363e+00 4.779906328796512151e-03
3.647294589178356361e+00 4.701623094618015940e-03
3.657314629258516803e+00 4.625092709614890205e-03
3.667334669338677244e+00 4.550325834802444215e-03
3.677354709418837686e+00 4.477285908503692534e-03
3.687374749498997684e+00 4.405925300401992116e-03
3.697394789579158125e+00 4.336197566973625135e-03
3.707414829659318567e+00 4.268057416910438912e-03
3.717434869739479009e+00 4.201460677491639789e-03
3.727454909819639006e+00 4.136364261893868584e-03
3.737474949899799448e+00 4.072726137418727042e-03
3.747494989979959890e+00 4.010505294617539712e-03
3.757515030060119887e+00 3.949661717293630019e-03
3.767535070140280329e+00 3.890156353363091908e-03
3.777555110220440771e+00 3.831951086555485976e-03
3.787575150300601212e+00 3.775008708936491812e-03
3.797595190380761210e+00 3.719292894235132468e-03
3.807615230460921651e+00 3.664768171958715168e-03
3.817635270541082093e+00 3.611399902279217866e-03
3.827655310621242535e+00 3.559154251675381193e-03
3.837675350701402532e+00 3.507998169315285335e-03
3.847695390781562974e+00 3.457899364164826721e-03
3.857715430861723416e+00 3.408826282807951320e-03
3.867735470941883413e+00 3.360748087965057321e-03
3.877755511022043855e+00 3.313634637696540736e-03
3.887775551102204297e+00 3.267456465278960505e-03
3.897795591182364738e+00 3.222184759741773732e-03
3.907815631262524736e+00 3.177791347053134617e-03
3.917835671342685178e+00 3.134248671943752011e-03
3.927855711422845619e+00 3.091529780358294888e-03
3.937875751503006061e+00 3.049608302524231887e-03
3.947895791583166059e+00 3.008458436628600342e-03
3.957915831663326500e+00 2.968054933093552863e-03
