# iamxed --ued --signal-type static --signal-geoms h2.xyz --qmin 0.0 --qmax 10.0 --npoints 1000 --export ued --log-to-file-disable --plot-disable
# 	s (Bohr⁻¹)		I (arb. units)
0.000000000000000000e+00 2.716140148032945376e+02
1.001001001001000992e-02 2.715883064133948324e+02
2.002002002002001985e-02 2.715140733005501943e+02
3.003003003003002977e-02 2.713898459754589112e+02
4.004004004004003969e-02 2.712164509833165198e+02
5.005005005005004615e-02 2.709926883812219103e+02
6.006006006006005954e-02 2.707197696309198136e+02
7.007007007007007293e-02 2.703974206185590674e+02
8.008008008008007939e-02 2.700266385703736205e+02
9.009009009009008584e-02 2.696079560096403611e+02
1.001001001001000923e-01 2.691396442768237875e+02
1.101101101101101126e-01 2.686236390926039235e+02
1.201201201201201191e-01 2.680600084736112194e+02
1.301301301301301394e-01 2.674496684235790553e+02
1.401401401401401459e-01 2.667911760555742831e+02
1.501501501501501523e-01 2.660880038903179639e+02
1.601601601601601588e-01 2.653371253183413501e+02
1.701701701701701652e-01 2.645420358795514630e+02
1.801801801801801717e-01 2.637008970484382075e+02
1.901901901901901781e-01 2.628161355994719770e+02
2.002002002002001846e-01 2.618861027923777556e+02
2.102102102102102188e-01 2.609136920196867209e+02
2.202202202202202252e-01 2.598996680188803907e+02
2.302302302302302317e-01 2.588442872370187615e+02
2.402402402402402382e-01 2.577478210794102438e+02
2.502502502502502724e-01 2.566105745527975728e+02
2.602602602602602788e-01 2.554331895044446128e+02
2.702702702702702853e-01 2.542165901622632873e+02
2.802802802802802917e-01 2.529617166328788755e+02
2.902902902902902982e-01 2.516695156402851126e+02
3.003003003003003046e-01 2.503409309732155918e+02
3.103103103103103111e-01 2.489768126821950318e+02
3.203203203203203175e-01 2.475779549797430832e+02
3.303303303303303240e-01 2.461451575523576309e+02
3.403403403403403304e-01 2.446792260437834159e+02
3.503503503503503369e-01 2.431809823850395560e+02
3.603603603603603434e-01 2.416513354383814089e+02
3.703703703703703498e-01 2.400912348237768299e+02
3.803803803803803563e-01 2.385016323265967344e+02
3.903903903903903627e-01 2.368834811232919719e+02
4.004004004004003692e-01 2.352377356165338824e+02
4.104104104104104311e-01 2.335653526027760734e+02
4.204204204204204376e-01 2.318672892631704769e+02
4.304304304304304440e-01 2.301445019021419398e+02
4.404404404404404505e-01 2.283979454126098858e+02
4.504504504504504570e-01 2.266285786772793927e+02
4.604604604604604634e-01 2.248373804924545993e+02
4.704704704704704699e-01 2.230253314743863200e+02
4.804804804804804763e-01 2.211934081095510578e+02
4.904904904904904828e-01 2.193425822355278854e+02
5.005005005005005447e-01 2.174738150379667161e+02
5.105105105105105512e-01 2.155880472166109030e+02
5.205205205205205576e-01 2.136862112790415722e+02
5.305305305305305641e-01 2.117692336597137626e+02
5.405405405405405705e-01 2.098380344165386191e+02
5.505505505505505770e-01 2.078935445743076116e+02
5.605605605605605835e-01 2.059367227557258673e+02
5.705705705705705899e-01 2.039685227394477351e+02
5.805805805805805964e-01 2.019898887895234338e+02
5.905905905905906028e-01 2.000017549153512846e+02
6.006006006006006093e-01 1.980050280644092311e+02
6.106106106106106157e-01 1.960005805305908666e+02
6.206206206206206222e-01 1.939892726164470673e+02
6.306306306306306286e-01 1.919719542645044044e+02
6.406406406406406351e-01 1.899494649257931940e+02
6.506506506506506415e-01 1.879226382580366987e+02
6.606606606606606480e-01 1.858923021088471899e+02
6.706706706706706544e-01 1.838592727255592649e+02
6.806806806806806609e-01 1.818243541850208089e+02
6.906906906906906674e-01 1.797883380214555018e+02
7.007007007007006738e-01 1.777520014090786731e+02
7.107107107107106803e-01 1.757161072923697134e+02
7.207207207207206867e-01 1.736814054983659616e+02
7.307307307307306932e-01 1.716486325603983119e+02
7.407407407407406996e-01 1.696185089133137751e+02
7.507507507507507061e-01 1.675917141087193158e+02
7.607607607607607125e-01 1.655688984532943664e+02
7.707707707707707190e-01 1.635506993566523306e+02
7.807807807807807254e-01 1.615377414135037668e+02
7.907907907907907319e-01 1.595306359879842262e+02
8.008008008008007383e-01 1.575299793518806837e+02
8.108108108108108558e-01 1.555363537789172028e+02
8.208208208208208623e-01 1.535503283542820441e+02
8.308308308308308687e-01 1.515724588882318358e+02
8.408408408408408752e-01 1.496032892536595682e+02
8.508508508508508816e-01 1.476433570237252866e+02
8.608608608608608881e-01 1.456931882739006028e+02
8.708708708708708945e-01 1.437532951991734365e+02
8.808808808808809010e-01 1.418241760728300846e+02
8.908908908908909074e-01 1.399063001570488041e+02
9.009009009009009139e-01 1.380000690164051491e+02
9.109109109109109204e-01 1.361058603379342173e+02
9.209209209209209268e-01 1.342240405360794000e+02
9.309309309309309333e-01 1.323549647636829150e+02
9.409409409409409397e-01 1.304989808183480022e+02
9.509509509509509462e-01 1.286564352090346688e+02
9.609609609609609526e-01 1.268276643502478862e+02
9.709709709709709591e-01 1.250129929287502648e+02
9.809809809809809655e-01 1.232127338715343399e+02
9.909909909909909720e-01 1.214271806513455090e+02
1.001001001001001089e+00 1.196566007231016897e+02
1.011011011011011096e+00 1.179012491831157092e+02
1.021021021021021102e+00 1.161613705168453805e+02
1.031031031031031109e+00 1.144371983665967889e+02
1.041041041041041115e+00 1.127289422294986139e+02
1.051051051051051122e+00 1.110367827102308524e+02
1.061061061061061128e+00 1.093608898959409998e+02
1.071071071071071135e+00 1.077014248919733461e+02
1.081081081081081141e+00 1.060585400913086289e+02
1.091091091091091148e+00 1.044323837399697652e+02
1.101101101101101154e+00 1.028231000009970728e+02
1.111111111111111160e+00 1.012308242542021617e+02
1.121121121121121167e+00 9.965568296155485939e+01
1.131131131131131173e+00 9.809779107213104510e+01
1.141141141141141180e+00 9.655721446615092418e+01
1.151151151151151186e+00 9.503398099309569602e+01
1.161161161161161193e+00 9.352811206775851360e+01
1.171171171171171199e+00 9.203962358857880588e+01
1.181181181181181206e+00 9.056852895140187343e+01
1.191191191191191212e+00 8.911486505511385303e+01
1.201201201201201219e+00 8.767867874579079057e+01
1.211211211211211225e+00 8.626000997691770067e+01
1.221221221221221231e+00 8.485889172058307395e+01
1.231231231231231238e+00 8.347534494437940111e+01
1.241241241241241244e+00 8.210934910434511380e+01
1.251251251251251251e+00 8.076086409717402148e+01
1.261261261261261257e+00 7.942984545361079540e+01
1.271271271271271264e+00 7.811624447907450985e+01
1.281281281281281270e+00 7.682000651972995797e+01
1.291291291291291277e+00 7.554106419081963963e+01
1.301301301301301283e+00 7.427934396141716888e+01
1.311311311311311290e+00 7.303476897386877909e+01
1.321321321321321296e+00 7.180725912715990944e+01
1.331331331331331302e+00 7.059673414428630167e+01
1.341341341341341309e+00 6.940312076275409936e+01
1.351351351351351315e+00 6.822634435712073753e+01
1.361361361361361322e+00 6.706632675553679235e+01
1.371371371371371328e+00 6.592298630191197617e+01
1.381381381381381335e+00 6.479622586272317619e+01
1.391391391391391341e+00 6.368591571970986820e+01
1.401401401401401348e+00 6.259192026014356713e+01
1.411411411411411354e+00 6.151410274610734064e+01
1.421421421421421361e+00 6.045232540958588174e+01
1.431431431431431367e+00 5.940645309969072230e+01
1.441441441441441373e+00 5.837635607698909723e+01
1.451451451451451380e+00 5.736190394720341601e+01
1.461461461461461386e+00 5.636296501273119475e+01
1.471471471471471393e+00 5.537940634293009623e+01
1.481481481481481399e+00 5.441109406868554288e+01
1.491491491491491406e+00 5.345789351351984919e+01
1.501501501501501412e+00 5.251966895114360057e+01
1.511511511511511419e+00 5.159628364598871286e+01
1.521521521521521425e+00 5.068759918102051643e+01
1.531531531531531432e+00 4.979345958164877572e+01
1.541541541541541438e+00 4.891369230793635836e+01
1.551551551551551444e+00 4.804812483490049857e+01
1.561561561561561451e+00 4.719658541967697829e+01
1.571571571571571457e+00 4.635890403223191214e+01
1.581581581581581464e+00 4.553492416681825716e+01
1.591591591591591470e+00 4.472449892882004008e+01
1.601601601601601477e+00 4.392748150859985401e+01
1.611611611611611705e+00 4.314372499824649765e+01
1.621621621621621712e+00 4.237308139376610683e+01
1.631631631631631718e+00 4.161539298769866235e+01
1.641641641641641725e+00 4.087049729849709934e+01
1.651651651651651731e+00 4.013823258484722345e+01
1.661661661661661737e+00 3.941843792807058833e+01
1.671671671671671744e+00 3.871095151364349363e+01
1.681681681681681750e+00 3.801560121681238513e+01
1.691691691691691757e+00 3.733221192498356800e+01
1.701701701701701763e+00 3.666061020696839279e+01
1.711711711711711770e+00 3.600062432763287035e+01
1.721721721721721776e+00 3.535208802564597619e+01
1.731731731731731783e+00 3.471485382579365364e+01
1.741741741741741789e+00 3.408877992709722093e+01
1.751751751751751796e+00 3.347372507692792709e+01
1.761761761761761802e+00 3.286954860003626777e+01
1.771771771771771808e+00 3.227610415257061760e+01
1.781781781781781815e+00 3.169322585490201050e+01
1.791791791791791821e+00 3.112074554526388681e+01
1.801801801801801828e+00 3.055849712716841893e+01
1.811811811811811834e+00 3.000631657013914122e+01
1.821821821821821841e+00 2.946404520950746075e+01
1.831831831831831847e+00 2.893153406647680725e+01
1.841841841841841854e+00 2.840863679801031338e+01
1.851851851851851860e+00 2.789520852619211411e+01
1.861861861861861867e+00 2.739110582731910881e+01
1.871871871871871873e+00 2.689618558866578724e+01
1.881881881881881879e+00 2.641030422920168519e+01
1.891891891891891886e+00 2.593331958881543642e+01
1.901901901901901892e+00 2.546509113197157603e+01
1.911911911911911899e+00 2.500547996402475803e+01
1.921921921921921905e+00 2.455434955171307010e+01
1.931931931931931912e+00 2.411156588805997814e+01
1.941941941941941918e+00 2.367699655923943425e+01
1.951951951951951925e+00 2.325051067740194810e+01
1.961961961961961931e+00 2.283197871754036257e+01
1.971971971971971938e+00 2.242126930243679084e+01
1.981981981981981944e+00 2.201824953087792025e+01
1.991991991991991950e+00 2.162278818877420150e+01
2.002002002002002179e+00 2.123475586871713716e+01
2.012012012012012185e+00 2.085402495610515317e+01
2.022022022022022192e+00 2.048046961509356123e+01
2.032032032032032198e+00 2.011396577437696465e+01
2.042042042042042205e+00 1.975439111281234972e+01
2.052052052052052211e+00 1.940162504489106965e+01
2.062062062062062218e+00 1.905554870606768247e+01
2.072072072072072224e+00 1.871604493795357982e+01
2.082082082082082231e+00 1.838299827338336101e+01
2.092092092092092237e+00 1.805629492136134218e+01
2.102102102102102243e+00 1.773582275189616553e+01
2.112112112112112250e+00 1.742147128073057871e+01
2.122122122122122256e+00 1.711313165397402969e+01
2.132132132132132263e+00 1.681069663264506175e+01
2.142142142142142269e+00 1.651406057713076692e+01
2.152152152152152276e+00 1.622311943157013658e+01
2.162162162162162282e+00 1.593777070816829777e+01
2.172172172172172289e+00 1.565791347144820378e+01
2.182182182182182295e+00 1.538344832244650995e+01
2.192192192192192302e+00 1.511427738286010403e+01
2.202202202202202308e+00 1.485030427914949591e+01
2.212212212212212314e+00 1.459143412660550609e+01
2.222222222222222321e+00 1.433757351338527286e+01
2.232232232232232327e+00 1.408863048452350419e+01
2.242242242242242334e+00 1.384451452592492693e+01
2.252252252252252340e+00 1.360513654834359976e+01
2.262262262262262347e+00 1.337040887135480460e+01
2.272272272272272353e+00 1.314024520732481349e+01
2.282282282282282360e+00 1.291456064538422588e+01
2.292292292292292366e+00 1.269327163540966552e+01
2.302302302302302373e+00 1.247629597201943064e+01
2.312312312312312379e+00 1.226355277858778159e+01
2.322322322322322385e+00 1.205496249128282038e+01
2.332332332332332392e+00 1.185044684313284158e+01
2.342342342342342398e+00 1.164992884812562934e+01
2.352352352352352405e+00 1.145333278534524268e+01
2.362362362362362411e+00 1.126058418315087017e+01
2.372372372372372418e+00 1.107160980340180778e+01
2.382382382382382424e+00 1.088633762573283015e+01
2.392392392392392431e+00 1.070469683188402321e+01
2.402402402402402437e+00 1.052661779008895593e+01
2.412412412412412444e+00 1.035203203952514528e+01
2.422422422422422450e+00 1.018087227483020030e+01
2.432432432432432456e+00 1.001307233068775915e+01
2.442442442442442463e+00 9.848567166486125402e+00
2.452452452452452469e+00 9.687292889638943194e+00
2.462462462462462476e+00 9.529187180279974356e+00
2.472472472472472482e+00 9.374189101273316282e+00
2.482482482482482489e+00 9.222238752773883164e+00
2.492492492492492495e+00 9.073277252070194976e+00
2.502502502502502502e+00 8.927246719950927556e+00
2.512512512512512508e+00 8.784090267137559138e+00
2.522522522522522515e+00 8.643751980786285927e+00
2.532532532532532521e+00 8.506176911061764656e+00
2.542542542542542527e+00 8.371311057785423060e+00
2.552552552552552534e+00 8.239101357161121797e+00
2.562562562562562540e+00 8.109495668580439798e+00
2.572572572572572547e+00 7.982442761510274210e+00
2.582582582582582553e+00 7.857892302464813739e+00
2.592592592592592560e+00 7.735794842064454002e+00
2.602602602602602566e+00 7.616101802183480096e+00
2.612612612612612573e+00 7.498765463188926006e+00
2.622622622622622579e+00 7.383738951272365014e+00
2.632632632632632586e+00 7.270976225876627730e+00
2.642642642642642592e+00 7.160432067219383967e+00
2.652652652652652598e+00 7.052062063915045975e+00
2.662662662662662605e+00 6.945822600697079352e+00
2.672672672672672611e+00 6.841670846241890480e+00
2.682682682682682618e+00 6.739564741096148559e+00
2.692692692692692624e+00 6.639462985708703968e+00
2.702702702702702631e+00 6.541325028568692801e+00
2.712712712712712637e+00 6.445111054450984867e+00
2.722722722722722644e+00 6.350781972770253248e+00
2.732732732732732650e+00 6.258299406044727675e+00
2.742742742742742657e+00 6.167625678470899153e+00
2.752752752752752663e+00 6.078723804609932557e+00
2.762762762762762669e+00 5.991557478186981811e+00
2.772772772772772676e+00 5.906091061004111076e+00
2.782782782782782682e+00 5.822289571967729671e+00
2.792792792792792689e+00 5.740118676231293016e+00
2.802802802802802695e+00 5.659544674453901081e+00
2.812812812812812702e+00 5.580534492175547534e+00
2.822822822822822708e+00 5.503055669309452114e+00
2.832832832832832715e+00 5.427076349752141482e+00
2.842842842842842721e+00 5.352565271111645373e+00
2.852852852852852727e+00 5.279491754554294758e+00
2.862862862862862734e+00 5.207825694770386704e+00
2.872872872872872740e+00 5.137537550059160019e+00
2.882882882882882747e+00 5.068598332533225559e+00
2.892892892892892753e+00 5.000979598442725660e+00
2.902902902902902760e+00 4.934653438619394095e+00
2.912912912912912766e+00 4.869592469040574301e+00
2.922922922922922773e+00 4.805769821513378837e+00
2.932932932932932779e+00 4.743159134478912797e+00
2.942942942942942786e+00 4.681734657354451379e+00
2.952952952952952792e+00 4.621472028593599291e+00
2.962962962962962798e+00 4.562347769350213689e+00
2.972972972972972805e+00 4.504338834853875539e+00
2.982982982982982811e+00 4.447422604670528301e+00
2.992992992992992818e+00 4.391576875848376638e+00
3.003003003003002824e+00 4.336779856133140321e+00
3.013013013013012831e+00 4.283010157253232641e+00
3.023023023023022837e+00 4.230246788275193737e+00
3.033033033033032844e+00 4.178469149029794494e+00
3.043043043043042850e+00 4.127657023609041076e+00
3.053053053053052857e+00 4.077790573934505503e+00
3.063063063063062863e+00 4.028850333397181238e+00
3.073073073073072869e+00 3.980817200569048531e+00
3.083083083083082876e+00 3.933672432986650591e+00
3.093093093093092882e+00 3.887397641006765436e+00
3.103103103103102889e+00 3.841974781734358579e+00
3.113113113113112895e+00 3.797386153022875188e+00
3.123123123123122902e+00 3.753614387547070663e+00
3.133133133133132908e+00 3.710642446948232198e+00
3.143143143143142915e+00 3.668453616052024913e+00
3.153153153153152921e+00 3.627031497158826223e+00
3.163163163163162928e+00 3.586360004406602187e+00
3.173173173173172934e+00 3.546423358206182375e+00
3.183183183183182940e+00 3.507206079748978578e+00
3.193193193193192947e+00 3.468692985586951494e+00
3.203203203203202953e+00 3.430869182284743246e+00
3.213213213213213404e+00 3.393720061143830513e+00
3.223223223223223410e+00 3.357231292998546834e+00
3.233233233233233417e+00 3.321388823083735620e+00
3.243243243243243423e+00 3.286178865973927277e+00
3.253253253253253430e+00 3.251587900593698954e+00
3.263263263263263436e+00 3.217602665299075237e+00
3.273273273273273443e+00 3.184210153029637613e+00
3.283283283283283449e+00 3.151397606531131323e+00
3.293293293293293456e+00 3.119152513648192571e+00
3.303303303303303462e+00 3.087462602686982915e+00
3.313313313313313468e+00 3.056315837847316530e+00
3.323323323323323475e+00 3.025700414724010301e+00
3.333333333333333481e+00 2.995604755877035785e+00
3.343343343343343488e+00 2.966017506470203458e+00
3.353353353353353494e+00 2.936927529977860996e+00
3.363363363363363501e+00 2.908323903959369350e+00
3.373373373373373507e+00 2.880195915900817472e+00
3.383383383383383514e+00 2.852533059123629311e+00
3.393393393393393520e+00 2.825325028759670065e+00
3.403403403403403527e+00 2.798561717792287684e+00
3.413413413413413533e+00 2.772233213163010301e+00
3.423423423423423539e+00 2.746329791943331156e+00
3.433433433433433546e+00 2.720842016156320486e+00
3.443443443443443552e+00 2.695761154018242678e+00
3.453453453453453559e+00 2.671078817034901132e+00
3.463463463463463565e+00 2.646786780109277259e+00
3.473473473473473572e+00 2.622876978427309158e+00
3.483483483483483578e+00 2.599341504504526501e+00
3.493493493493493585e+00 2.576172605273646443e+00
3.503503503503503591e+00 2.553362679212959563e+00
3.513513513513513598e+00 2.530904273515365066e+00
3.523523523523523604e+00 2.508790081297891827e+00
3.533533533533533610e+00 2.487012938851500543e+00
3.543543543543543617e+00 2.465565822931016449e+00
3.553553553553553623e+00 2.444441848084964342e+00
3.563563563563563630e+00 2.423634264025118501e+00
3.573573573573573636e+00 2.403136453035554787e+00
3.583583583583583643e+00 2.382941927420958006e+00
3.593593593593593649e+00 2.363044326993994915e+00
3.603603603603603656e+00 2.343437416601490852e+00
3.613613613613613662e+00 2.324115083689158645e+00
3.623623623623623669e+00 2.305071335904659069e+00
3.633633633633633675e+00 2.286300298738682457e+00
3.643643643643643681e+00 2.267796213203865374e+00
3.653653653653653688e+00 2.249553433551195081e+00
3.663663663663663694e+00 2.231566425023659761e+00
3.673673673673673701e+00 2.213829761646890937e+00
3.683683683683683707e+00 2.196338124056441465e+00
3.693693693693693714e+00 2.179086297361493507e+00
3.703703703703703720e+00 2.162069169044612771e+00
3.713713713713713727e+00 2.145281726897335872e+00
3.723723723723723733e+00 2.128719056991207559e+00
3.733733733733733740e+00 2.112376341684019554e+00
3.743743743743743746e+00 2.096248857660909071e+00
3.753753753753753752e+00 2.080331974010004359e+00
3.763763763763763759e+00 2.064621150332310417e+00
3.773773773773773765e+00 2.049111934885509800e+00
3.783783783783783772e+00 2.033799962761337898e+00
3.793793793793793778e+00 2.018680954096238267e+00
3.803803803803803785e+00 2.003750712314951610e+00
3.813813813813813791e+00 1.989005122406687587e+00
3.823823823823823798e+00 1.974440149233605446e+00
3.833833833833833804e+00 1.960051835871215120e+00
3.843843843843843811e+00 1.945836301980365057e+00
3.853853853853853817e+00 1.931789742210536787e+00
3.863863863863863823e+00 1.917908424634038989e+00
3.873873873873873830e+00 1.904188689210809748e+00
3.883883883883883836e+00 1.890626946283471943e+00
3.893893893893893843e+00 1.877219675102302920e+00
3.903903903903903849e+00 1.863963422379766532e+00
3.913913913913913856e+00 1.850854800877009598e+00
3.923923923923923862e+00 1.837890571846310772e+00
3.933933933933933869e+00 1.825067862288468179e+00
3.943943943943943875e+00 1.812383926241605270e+00
3.953953953953953881e+00 1.799836074424672860e+00
