# iamxed --ued --signal-type static --signal-geoms CF3I.xyz --qmin 0.0 --qmax 6.0 --npoints 600 --plot-units angstrom-1 --export ued --log-to-file-disable --plot-disable
# 	s (Bohr⁻¹)		I (arb. units)
0.000000000000000000e+00 8.391077987160443445e+04
1.001669449081802991e-02 8.388558970996509015e+04
2.003338898163605983e-02 8.381103100398562674e+04
3.005008347245408801e-02 8.368563118716841564e+04
4.006677796327211966e-02 8.351107877289081807e+04
5.008347245409015130e-02 8.328707020155264763e+04
6.010016694490817601e-02 8.301428351232808200e+04
7.011686143572620766e-02 8.269299942359731358e+04
8.013355592654423931e-02 8.232379059562314069e+04
9.015025041736227096e-02 8.190783746762640658e+04
1.001669449081803026e-01 8.144526840453073964e+04
1.101836393989983343e-01 8.093750313806626946e+04
1.202003338898163520e-01 8.038501164441891888e+04
1.302170283806343976e-01 7.978923118329084537e+04
1.402337228714524153e-01 7.915087972587322292e+04
1.502504173622704609e-01 7.847130759141896851e+04
1.602671118530884786e-01 7.775179147902611294e+04
1.702838063439064964e-01 7.699388875038204424e+04
1.803005008347245419e-01 7.619839773613287252e+04
1.903171953255425597e-01 7.536720183670856932e+04
2.003338898163606052e-01 7.450145333302573999e+04
2.103505843071786230e-01 7.360292208954547823e+04
2.203672787979966685e-01 7.267319940682779998e+04
2.303839732888146863e-01 7.171389624964768882e+04
2.404006677796327041e-01 7.072665786806783581e+04
2.504173622704507496e-01 6.971316043075827474e+04
2.604340567612687951e-01 6.867511835030460497e+04
2.704507512520867851e-01 6.761427792443038197e+04
2.804674457429048307e-01 6.653240359406392963e+04
2.904841402337228762e-01 6.543127344685424032e+04
3.005008347245409217e-01 6.431267643962725560e+04
3.105175292153589117e-01 6.317842115079258656e+04
3.205342237061769572e-01 6.203032396744110883e+04
3.305509181969950028e-01 6.087019572358395089e+04
3.405676126878129928e-01 5.969983749227655062e+04
3.505843071786310383e-01 5.852103630621825141e+04
3.606010016694490838e-01 5.733555989982954634e+04
3.706176961602671294e-01 5.614515492020075908e+04
3.806343906510851194e-01 5.495154430144828802e+04
3.906510851419031649e-01 5.375642370696969010e+04
4.006677796327212104e-01 5.256145969802403124e+04
4.106844741235392005e-01 5.136829221996931301e+04
4.207011686143572460e-01 5.017852486935559136e+04
4.307178631051752915e-01 4.899371927330447943e+04
4.407345575959933370e-01 4.781539227413310437e+04
4.507512520868113270e-01 4.664501428014642443e+04
4.607679465776293726e-01 4.548400929448800161e+04
4.707846410684474181e-01 4.433374995543254772e+04
4.808013355592654081e-01 4.319555467951278843e+04
4.908180300500834536e-01 4.207068573765762994e+04
5.008347245409014992e-01 4.096034564240130567e+04
5.108514190317194892e-01 3.986567307648811402e+04
5.208681135225375902e-01 3.878774586487900524e+04
5.308848080133555802e-01 3.772758054706511030e+04
5.409015025041735703e-01 3.668613142337146564e+04
5.509181969949916713e-01 3.566429293066452374e+04
5.609348914858096613e-01 3.466290108637696540e+04
5.709515859766276513e-01 3.368272740191669436e+04
5.809682804674457524e-01 3.272447806244875392e+04
5.909849749582637424e-01 3.178879383446543943e+04
6.010016694490818434e-01 3.087624655734488624e+04
6.110183639398998334e-01 2.998733870429807939e+04
6.210350584307178234e-01 2.912250887042754766e+04
6.310517529215359245e-01 2.828213277299788751e+04
6.410684474123539145e-01 2.746652415626768197e+04
6.510851419031719045e-01 2.667593786970851215e+04
6.611018363939900055e-01 2.591057061149205038e+04
6.711185308848079956e-01 2.517055991873934909e+04
6.811352253756259856e-01 2.445598547777690692e+04
6.911519198664440866e-01 2.376687018391446691e+04
7.011686143572620766e-01 2.310317613361277108e+04
7.111853088480801777e-01 2.246480891078022614e+04
7.212020033388981677e-01 2.185162405546899026e+04
7.312186978297161577e-01 2.126342899057340401e+04
7.412353923205342587e-01 2.069998533565316757e+04
7.512520868113522488e-01 2.016101388024246990e+04
7.612687813021702388e-01 1.964619434331820594e+04
7.712854757929883398e-01 1.915516555831755613e+04
7.813021702838063298e-01 1.868752775166304127e+04
7.913188647746243198e-01 1.824284363908077285e+04
8.013355592654424209e-01 1.782063467296266754e+04
8.113522537562604109e-01 1.742038871639535137e+04
8.213689482470784009e-01 1.704156535264626655e+04
8.313856427378965019e-01 1.668359819608990438e+04
8.414023372287144920e-01 1.634589766193758442e+04
8.514190317195325930e-01 1.602785471436031730e+04
8.614357262103505830e-01 1.572884156623009221e+04
8.714524207011685730e-01 1.544821340241796497e+04
8.814691151919866741e-01 1.518531063864358839e+04
8.914858096828046641e-01 1.493945967380611910e+04
9.015025041736226541e-01 1.470997218537161098e+04
9.115191986644407551e-01 1.449615114918936160e+04
9.215358931552587451e-01 1.429729384015334472e+04
9.315525876460767352e-01 1.411269389586861689e+04
9.415692821368948362e-01 1.394164238831307011e+04
9.515859766277128262e-01 1.378342862714356124e+04
9.616026711185308162e-01 1.363734378786342313e+04
9.716193656093489173e-01 1.350268296560766976e+04
9.816360601001669073e-01 1.337874688627910291e+04
9.916527545909850083e-01 1.326484332583355172e+04
1.001669449081802998e+00 1.316028860259963767e+04
1.011686143572620988e+00 1.306440945855511382e+04
1.021702838063438978e+00 1.297654451360826897e+04
1.031719532554257190e+00 1.289604550920746260e+04
1.041736227045075180e+00 1.282227574645878485e+04
1.051752921535893170e+00 1.275461077998340625e+04
1.061769616026711160e+00 1.269244272412217106e+04
1.071786310517529150e+00 1.263518143613425309e+04
1.081803005008347141e+00 1.258225544800867647e+04
1.091819699499165353e+00 1.253311322313540222e+04
1.101836393989983343e+00 1.248722374960607340e+04
1.111853088480801333e+00 1.244407675891218059e+04
1.121869782971619323e+00 1.240318328268605364e+04
1.131886477462437313e+00 1.236407582990282390e+04
1.141903171953255303e+00 1.232630557446847160e+04
1.151919866444073515e+00 1.228944412689276214e+04
1.161936560934891505e+00 1.225308606705301645e+04
1.171953255425709495e+00 1.221684915368535985e+04
1.181969949916527485e+00 1.218037434378620674e+04
1.191986644407345475e+00 1.214332522555511605e+04
1.202003338898163687e+00 1.210538816852076161e+04
1.212020033388981677e+00 1.206627248625387438e+04
1.222036727879799667e+00 1.202571029166174958e+04
1.232053422370617657e+00 1.198345624567772575e+04
1.242070116861435647e+00 1.193928716704206636e+04
1.252086811352253637e+00 1.189300202946097124e+04
1.262103505843071849e+00 1.184442168412838510e+04
1.272120200333889839e+00 1.179338841987460182e+04
1.282136894824707829e+00 1.173976426587287096e+04
1.292153589315525819e+00 1.168342705980702340e+04
1.302170283806343809e+00 1.162427328274262618e+04
1.312186978297162021e+00 1.156221854697916024e+04
1.322203672787980011e+00 1.149719699693965595e+04
1.332220367278798001e+00 1.142916145595769376e+04
1.342237061769615991e+00 1.135808408958557629e+04
1.352253756260433981e+00 1.128395400708207126e+04
1.362270450751251971e+00 1.120677620160756487e+04
1.372287145242070183e+00 1.112657079917518422e+04
1.382303839732888173e+00 1.104337083677406372e+04
1.392320534223706163e+00 1.095722014955169652e+04
1.402337228714524153e+00 1.086817515252672274e+04
1.412353923205342143e+00 1.077630438613857586e+04
1.422370617696160355e+00 1.068168772470461045e+04
1.432387312186978345e+00 1.058441532476967222e+04
1.442404006677796335e+00 1.048458673775222269e+04
1.452420701168614325e+00 1.038231049212546895e+04
1.462437395659432315e+00 1.027770335233375044e+04
1.472454090150250305e+00 1.017088953475358903e+04
1.482470784641068517e+00 1.006199947750138017e+04
1.492487479131886507e+00 9.951169070504545743e+03
1.502504173622704498e+00 9.838539407279964507e+03
1.512520868113522488e+00 9.724256087103618484e+03
1.522537562604340478e+00 9.608468467067965321e+03
1.532554257095158468e+00 9.491328402033137536e+03
1.542570951585976680e+00 9.372989757192945035e+03
1.552587646076794670e+00 9.253608238627990431e+03
1.562604340567612660e+00 9.133340777843784963e+03
1.572621035058430650e+00 9.012344866082326917e+03
1.582637729549248640e+00 8.890777452981365059e+03
1.592654424040066852e+00 8.768794635020973146e+03
1.602671118530884842e+00 8.646551438704420434e+03
1.612687813021702832e+00 8.524201312865576256e+03
1.622704507512520822e+00 8.401895609871728084e+03
1.632721202003338812e+00 8.279782951230277831e+03
1.642737896494156802e+00 8.158008956199493696e+03
1.652754590984975014e+00 8.036715933381555260e+03
1.662771285475793004e+00 7.916042502859880187e+03
1.672787979966610994e+00 7.796123019881350956e+03
1.682804674457428984e+00 7.677086437993111758e+03
1.692821368948246974e+00 7.559056767517688058e+03
1.702838063439065186e+00 7.442153109229384427e+03
1.712854757929883176e+00 7.326489408461498897e+03
1.722871452420701166e+00 7.212174558107474695e+03
1.732888146911519156e+00 7.099312923807428888e+03
1.742904841402337146e+00 6.988003304019438474e+03
1.752921535893155136e+00 6.878338566638748489e+03
1.762938230383973348e+00 6.770405528800017237e+03
1.772954924874791338e+00 6.664284208023843348e+03
1.782971619365609328e+00 6.560046907364884646e+03
1.792988313856427318e+00 6.457759538340228573e+03
1.803005008347245308e+00 6.357481817725855763e+03
1.813021702838063520e+00 6.259267261257085920e+03
1.823038397328881510e+00 6.163163308060497002e+03
1.833055091819699500e+00 6.069211424518630338e+03
1.843071786310517490e+00 5.977446973578030338e+03
1.853088480801335480e+00 5.887899265054096759e+03
1.863105175292153470e+00 5.800591653266665162e+03
1.873121869782971682e+00 5.715542017199582915e+03
1.883138564273789672e+00 5.632762960376537194e+03
1.893155258764607662e+00 5.552261477296066005e+03
1.903171953255425652e+00 5.474039069678940905e+03
1.913188647746243642e+00 5.398091868480194535e+03
1.923205342237061632e+00 5.324410091252681923e+03
1.933222036727879845e+00 5.252978309307501149e+03
1.943238731218697835e+00 5.183776322989955588e+03
1.953255425709515825e+00 5.116779386541053100e+03
1.963272120200333815e+00 5.051958435726339303e+03
1.973288814691151805e+00 4.989280544446566637e+03
1.983305509181970017e+00 4.928709051264919253e+03
1.993322203672788007e+00 4.870203603154429402e+03
2.003338898163605997e+00 4.813720380492036384e+03
2.013355592654423987e+00 4.759212329066135680e+03
2.023372287145241977e+00 4.706629394778296955e+03
2.033388981636059967e+00 4.655918760236623712e+03
2.043405676126877957e+00 4.607025082459876103e+03
2.053422370617695947e+00 4.559890730934093881e+03
2.063439065108514381e+00 4.514456025287883676e+03
2.073455759599332371e+00 4.470659471877910619e+03
2.083472454090150361e+00 4.428437998602752486e+03
2.093489148580968351e+00 4.387727187291048722e+03
2.103505843071786341e+00 4.348461503038311093e+03
2.113522537562604331e+00 4.310574519896238598e+03
2.123539232053422321e+00 4.273999142348503483e+03
2.133555926544240311e+00 4.238667822037621590e+03
2.143572621035058301e+00 4.204512769238771398e+03
2.153589315525876291e+00 4.171466158607991929e+03
2.163606010016694281e+00 4.139460328764147562e+03
2.173622704507512271e+00 4.108427975296081058e+03
2.183639398998330705e+00 4.078302336818633194e+03
2.193656093489148695e+00 4.049017373733428940e+03
2.203672787979966685e+00 4.020507939382448058e+03
2.213689482470784675e+00 3.992709943314443080e+03
2.223706176961602665e+00 3.965560506415971759e+03
2.233722871452420655e+00 3.938998107690311372e+03
2.243739565943238645e+00 3.912962722498448329e+03
2.253756260434056635e+00 3.887395952107098765e+03
2.263772954924874625e+00 3.862241144418540898e+03
2.273789649415692615e+00 3.837443505786666265e+03
2.283806343906510605e+00 3.812950203852345112e+03
2.293823038397329039e+00 3.788710461359286455e+03
2.303839732888147029e+00 3.764675640938933157e+03
2.313856427378965019e+00 3.740799320879282732e+03
2.323873121869783009e+00 3.717037361918347415e+03
2.333889816360600999e+00 3.693347965127449243e+03
2.343906510851418989e+00 3.669691720973528845e+03
2.353923205342236979e+00 3.646031649672297135e+03
2.363939899833054969e+00 3.622333232965886964e+03
2.373956594323872960e+00 3.598564437479462867e+03
2.383973288814690950e+00 3.574695729830852088e+03
2.393989983305508940e+00 3.550700083685927439e+03
2.404006677796327374e+00 3.526552978969994911e+03
2.414023372287145364e+00 3.502232393461816628e+03
2.424040066777963354e+00 3.477718787012231587e+03
2.434056761268781344e+00 3.452995078643433317e+03
2.444073455759599334e+00 3.428046616798150353e+03
2.454090150250417324e+00 3.402861198834609240e+03
2.464106844741235314e+00 3.377429371199892103e+03
2.474123539232053304e+00 3.351744148062889508e+03
2.484140233722871294e+00 3.325800780481503352e+03
2.494156928213689284e+00 3.299596695955108316e+03
2.504173622704507274e+00 3.273131433676485813e+03
2.514190317195325708e+00 3.246406575072667692e+03
2.524207011686143698e+00 3.219425669972797550e+03
2.534223706176961688e+00 3.192194158744451215e+03
2.544240400667779678e+00 3.164719290741894838e+03
2.554257095158597668e+00 3.137010039410854006e+03
2.564273789649415658e+00 3.109077014394527396e+03
2.574290484140233648e+00 3.080932370984560293e+03
2.584307178631051638e+00 3.052589717259113968e+03
2.594323873121869628e+00 3.024064019247222404e+03
2.604340567612687618e+00 2.995371504455228660e+03
2.614357262103505608e+00 2.966529564086583378e+03
2.624373956594324042e+00 2.937556654281131159e+03
2.634390651085142032e+00 2.908472196694020113e+03
2.644407345575960022e+00 2.879296478727642807e+03
2.654424040066778012e+00 2.850050553722730001e+03
2.664440734557596002e+00 2.820756141406590814e+03
2.674457429048413992e+00 2.791435528887933287e+03
2.684474123539231982e+00 2.762111472478474298e+03
2.694490818030049972e+00 2.732807100611844362e+03
2.704507512520867962e+00 2.703545818120076547e+03
2.714524207011685952e+00 2.674351212117313025e+03
2.724540901502503942e+00 2.645246959729380706e+03
2.734557595993322376e+00 2.616256737896343566e+03
2.744574290484140366e+00 2.587404135463551029e+03
2.754590984974958356e+00 2.558712567764575851e+03
2.764607679465776346e+00 2.530205193887253699e+03
2.774624373956594336e+00 2.501904836801513284e+03
2.784641068447412326e+00 2.473833906515078979e+03
2.794657762938230317e+00 2.446014326410410831e+03
2.804674457429048307e+00 2.418467462903328396e+03
2.814691151919866297e+00 2.391214058550930531e+03
2.824707846410684287e+00 2.364274168723452931e+03
2.834724540901502277e+00 2.337667101941837245e+03
2.844741235392320711e+00 2.311411363969906688e+03
2.854757929883138701e+00 2.285524605737271031e+03
2.864774624373956691e+00 2.260023575156412335e+03
2.874791318864774681e+00 2.234924072884914040e+03
2.884808013355592671e+00 2.210240912071390994e+03
2.894824707846410661e+00 2.185987882111548060e+03
2.904841402337228651e+00 2.162177716428899657e+03
2.914858096828046641e+00 2.138822064282939209e+03
2.924874791318864631e+00 2.115931466596178325e+03
2.934891485809682621e+00 2.093515335780387886e+03
2.944908180300500611e+00 2.071582019968358509e+03
2.954924874791319045e+00 2.050139058258297609e+03
2.964941569282137035e+00 2.029192909786524751e+03
2.974958263772955025e+00 2.008748852415835472e+03
2.984974958263773015e+00 1.988810982468102793e+03
2.994991652754591005e+00 1.969382218149660048e+03
3.005008347245408995e+00 1.950464306574124294e+03
3.015025041736226985e+00 1.932057834281395344e+03
3.025041736227044975e+00 1.914162241143882284e+03
3.035058430717862965e+00 1.896775837543754278e+03
3.045075125208680955e+00 1.879895824698277920e+03
3.055091819699498945e+00 1.863518318004083085e+03
3.065108514190316935e+00 1.847638373265455584e+03
3.075125208681135369e+00 1.832250015666586478e+03
3.085141903171953359e+00 1.817346271342985119e+03
3.095158597662771349e+00 1.802919201403100033e+03
3.105175292153589339e+00 1.788959938247515765e+03
3.115191986644407329e+00 1.775458724029965879e+03
3.125208681135225319e+00 1.762404951101725828e+03
3.135225375626043309e+00 1.749787204278828767e+03
3.145242070116861299e+00 1.737593304769869064e+03
3.155258764607679289e+00 1.725810355601062838e+03
3.165275459098497279e+00 1.714424788374449236e+03
3.175292153589315269e+00 1.703422411195001587e+03
3.185308848080133703e+00 1.692788457602618564e+03
3.195325542570951693e+00 1.682507636345663514e+03
3.205342237061769683e+00 1.672564181833848124e+03
3.215358931552587674e+00 1.662941905109827530e+03
3.225375626043405664e+00 1.653624245180807293e+03
3.235392320534223654e+00 1.644594320553840817e+03
3.245409015025041644e+00 1.635834980821196950e+03
3.255425709515859634e+00 1.627328858145297318e+03
3.265442404006677624e+00 1.619058418496145805e+03
3.275459098497495614e+00 1.611006012497930442e+03
3.285475792988313604e+00 1.603153925745568358e+03
3.295492487479132038e+00 1.595484428456325304e+03
3.305509181969950028e+00 1.587979824326281914e+03
3.315525876460768018e+00 1.580622498466300385e+03
3.325542570951586008e+00 1.573394964297324123e+03
3.335559265442403998e+00 1.566279909290152318e+03
3.345575959933221988e+00 1.559260239440392752e+03
3.355592654424039978e+00 1.552319122375043662e+03
3.365609348914857968e+00 1.545440028993041778e+03
3.375626043405675958e+00 1.538606773548139472e+03
3.385642737896493948e+00 1.531803552088629431e+03
3.395659432387311938e+00 1.525014979174739892e+03
3.405676126878130372e+00 1.518226122800788744e+03
3.415692821368948362e+00 1.511422537455698603e+03
3.425709515859766352e+00 1.504590295364620715e+03
3.435726210350584342e+00 1.497716079816263118e+03
3.445742904841402332e+00 1.490787321087412010e+03
3.455759599332220322e+00 1.483792075349463175e+03
3.465776293823038312e+00 1.476719018237148930e+03
3.475792988313856302e+00 1.469557465549871495e+03
3.485809682804674292e+00 1.462297391781654369e+03
3.495826377295492282e+00 1.454929446467156822e+03
3.505843071786310272e+00 1.447444968337611499e+03
3.515859766277128706e+00 1.439835997286826114e+03
3.525876460767946696e+00 1.432095284153564990e+03
3.535893155258764686e+00 1.424216298332631141e+03
3.545909849749582676e+00 1.416193233232830153e+03
3.555926544240400666e+00 1.408021009605675772e+03
3.565943238731218656e+00 1.399695276774208423e+03
3.575959933222036646e+00 1.391212411796590914e+03
3.585976627712854636e+00 1.382569516604249657e+03
3.595993322203672626e+00 1.373764413159221931e+03
3.606010016694490616e+00 1.364795636680055395e+03
3.616026711185308606e+00 1.355662426989958476e+03
3.626043405676127040e+00 1.346364718045214204e+03
3.636060100166945031e+00 1.336903125705719503e+03
3.646076794657763021e+00 1.327278933813262029e+03
3.656093489148581011e+00 1.317494078646591788e+03
3.666110183639399001e+00 1.307551131825510083e+03
3.676126878130216991e+00 1.297453281739156182e+03
3.686143572621034981e+00 1.287204313576296045e+03
3.696160267111852971e+00 1.276808588037857135e+03
3.706176961602670961e+00 1.266271018814041554e+03
3.716193656093488951e+00 1.255597048910251942e+03
3.726210350584306941e+00 1.244792625907624824e+03
3.736227045075125375e+00 1.233864176245326234e+03
3.746243739565943365e+00 1.222818578612816736e+03
3.756260434056761355e+00 1.211663136541106269e+03
3.766277128547579345e+00 1.200405550282570630e+03
3.776293823038397335e+00 1.189053888069193818e+03
3.786310517529215325e+00 1.177616556839152281e+03
3.796327212020033315e+00 1.166102272521448185e+03
3.806343906510851305e+00 1.154520029967887012e+03
3.816360601001669295e+00 1.142879072620993838e+03
3.826377295492487285e+00 1.131188862005583815e+03
3.836393989983305275e+00 1.119459047130595991e+03
3.846410684474123265e+00 1.107699433886449015e+03
3.856427378964941699e+00 1.095919954521644286e+03
3.866444073455759689e+00 1.084130637280658902e+03
3.876460767946577679e+00 1.072341576283169161e+03
3.886477462437395669e+00 1.060562901722636525e+03
3.896494156928213659e+00 1.048804750459958768e+03
3.906510851419031649e+00 1.037077237085487241e+03
3.916527545909849639e+00 1.025390426034783786e+03
3.926544240400667629e+00 1.013754344853243538e+03
3.936560934891485619e+00 1.002178985353027770e+03
3.946577629382303609e+00 9.906742108818990573e+02
3.956594323873121599e+00 9.792497235525530641e+02
